Hz,ppm,Intensity
658.00,7.348,30
652.63,7.288,38
651.94,7.280,38
650.94,7.269,73
650.63,7.265,76
649.81,7.256,105
648.25,7.239,107
645.44,7.207,779
644.19,7.193,730
642.06,7.170,122
641.50,7.163,154
640.81,7.156,127
640.06,7.147,92
639.38,7.140,74
638.69,7.132,70
637.94,7.124,63
637.38,7.117,83
637.00,7.113,83
636.06,7.103,62
247.13,2.760,63
239.50,2.675,213
231.94,2.590,236
224.44,2.507,91
117.00,1.307,414
109.63,1.225,1000
109.19,1.220,622
107.38,1.199,41
101.81,1.137,328
101.31,1.132,178
